0.17
0.33
0.5
0.65
0.81
0.98
1.13
1.29
1.46
1.61
1.77
1.94
2.09
2.25
2.41
2.57
2.75
2.9
3.06
3.23
3.38
3.54
3.71
3.86
4.02
4.19
4.34
4.5
4.66
4.82
4.98
5.14
5.3
5.48
5.63
5.79
5.96
6.11
6.27
6.44
6.59
6.75
6.91
7.07
7.23
7.39
7.55
7.71
7.88
8.04
8.21
8.36
8.52
8.69
8.84
9
9.16
9.32
9.48
9.64
9.8
9.96
10.13
10.29
10.46
10.61
10.77
10.94
11.09
11.25
11.41
11.57
11.73
11.89
12.05
12.23
12.38
12.54
12.71
12.86
13.02
13.19
13.34
13.5
13.66
13.82
13.98
14.14
14.3
14.48
14.63
14.79
14.96
15.11
15.27
15.44
15.59
15.75
15.91
16.07
16.23
16.39
16.55
16.73
16.88
17.04
17.21
17.36
17.52
17.69
17.84
18
18.16
18.32
18.48
18.64
18.8
18.96
19.13
19.29
19.46
19.61
19.77
19.94
20.09
20.25
20.41
20.57
20.73
20.89
21.05
21.21
21.38
21.54
21.71
21.86
22.02
22.19
22.34
22.5
22.66
22.82
22.98
23.14
23.3
23.46
23.63
23.79
23.96
24.11
24.27
24.44
24.59
24.75
24.91
25.07
25.23
25.39
25.55
25.71
25.87
26.04
26.21
26.36
26.52
26.69
26.84
27
27.16
27.32
27.48
27.64
27.8
27.96
28.12
28.29
28.46
28.61
28.77
28.94
29.09
29.25
29.41
29.57
29.73
29.89
30.05
30.21
30.37
30.53
30.71
30.86
31.02
31.19
31.34
31.5
31.66
31.82
31.98
32.14
32.3
32.46
32.62
32.78
32.94
33.1
33.27
33.44
33.59
33.75
33.91
34.07
34.23
34.39
34.55
34.71
34.87
35.03
35.19
35.35
35.51
35.67
35.83
36
36.16
36.32
36.48
36.64
36.8
36.96
37.12
37.28
37.44
37.6
37.76
37.92
38.08
38.25
38.4
38.56
38.73
38.88
39.04
39.21
39.37
39.53
39.69
39.85
40.01
40.17
40.33
40.5
40.65
40.81
40.98
41.13
41.29
41.46
41.61
41.77
41.94
42.09
42.26
42.42
42.58
42.75
42.9
43.06
43.23
43.38
43.54
43.71
43.86
44.02
44.19
44.34
44.5
44.66
44.82
44.98
45.14
45.31
45.48
45.63
45.79
45.96
46.11
46.27
46.44
46.59
46.75
46.91
47.07
47.23
47.39
47.55
47.71
47.87
48.03
48.19
48.35
48.52
48.69
48.84
49
49.16
49.32
49.48
49.64
49.8
49.96
50.12
50.28
50.44
50.6
50.76
50.92
51.08
51.25
51.4
51.57
51.73
51.89
52.05
52.21
52.37
52.53
52.69
52.85
53.01
53.17
53.33
53.5
53.65
53.81
53.98
54.14
54.3
54.46
54.62
54.78
54.94
