0.17,-0.00276397372338422,-0.00465206700798682,0.00352106987146084
0.33,-0.00616815256358549,-0.00564341851039529,-0.00471292266583179
0.5,-0.000226643879897459,0.00162673960907156,-0.0034627414668269
0.65,0.00532773894855554,0.00398644039376139,-0.0045559671255091
0.81,0.0013613145468595,-0.000678745364248279,-0.00233143783682377
0.98,0.0056151834439685,-0.000414765249096449,0.000810377215796687
1.13,0.00246901031659963,0.0085755481128732,-0.00222444256159871
1.29,-0.000906515557129728,0.000842187188780485,0.00022530399648435
1.46,0.00133982775415531,0.00342652864357029,-0.00147831645928242
1.61,-0.00026269759210984,0.00406705421664644,0.00623154400218207
1.77,0.00063343771540314,-4.16750282816736e-05,-0.00257383662986621
1.94,-0.00232249754206215,-0.00370258041484495,0.00337463084402112
2.09,-0.00738293043888794,-0.00239853623629238,-0.00294210579008714
2.25,-0.000297308686689757,0.00120356729691951,0.00669522661564803
2.41,0.00238801261440758,0.00787510244607226,-0.0028008840456617
2.57,0.00945414143566981,-0.00325646532828694,-0.00190946617185639
2.73,-0.00130785647391352,0.00144725574686577,0.0150893979361727
2.89,-3.16090131509128e-05,-0.00396319324437755,-0.00197483244543672
3.06,-0.000785664076766723,0.00307029997984887,0.000422659335647335
3.23,0.00301759206068131,-0.00270693185392235,0.00202324528078113
3.38,-0.00301266692889812,-0.00367050324997176,0.0163053253503594
3.54,0.00489474254404842,-0.00570115238136726,-0.00248863921770726
3.71,0.0049230084667653,-0.00262602904756992,0.00603883231805824
3.86,-0.00457050631435374,0.00116843695889157,-0.00166630254151334
4.02,-0.00545642601245322,0.000897081483073658,-0.00266979639546894
4.19,-0.00132332649551681,0.00869327746456161,-0.00366558724518318
4.34,-0.00753075769611766,0.00204851726188138,-0.00989291986197904
4.5,0.00424725352765487,-0.0030307441113091,-0.00314287558148463
4.66,0.00593746187733557,0.00529504548529802,0.00887935610549295
4.82,-0.000603389925338149,-0.00521483089935537,-0.0144993710295584
4.98,0.000358648377920212,0.00177066594029784,0.0155310914772474
5.14,0.00272043628559626,0.00142073209036475,0.00276120401335223
5.3,-0.00445723150871058,-0.0020719220957226,0.0187990227376069
5.46,0.0022275771136423,-0.00516763864269154,-0.00241231938135833
5.62,0.000964606426537618,0.00201840015878674,-0.00296532406528272
5.79,0.00137099064073565,-0.00308448247173287,-0.00451950077564311
5.96,-0.00505231714639076,-0.00401946963351429,0.00240506298746901
6.11,0.00230606489572582,0.00258068659920929,0.00517344622808991
6.27,-0.00467041051754968,0.00118289869675647,-0.00323165133958558
6.44,-0.0017472566932768,0.00139591720567056,-0.0111805507730935
6.59,-0.00245823261409628,0.000191057178903442,0.00716866090469603
6.75,-0.0048708991826627,0.000915676940971055,0.00203209554097339
6.91,0.0019291546499044,6.87794787292972e-05,0.00987465527408538
7.07,-0.00253384688951375,-8.17807506914292e-06,-0.00913185211668388
7.23,-0.00116097923317349,0.00310775475011393,-0.0041164315182467
7.39,0.0053427046404172,-0.0046377560441051,-0.00110540364402256
7.55,-0.00389244084131168,-0.00533141688167316,-0.00746412438280797
7.71,-0.000454260793659511,-0.000288718199348503,-0.00107582082986135
7.87,0.00477520466673287,-0.00206073969198695,0.0141402621617928
8.03,-0.00105671199128432,0.00250166846764377,-0.00302697541483155
8.19,0.000819066246042222,-0.000220417585071297,-0.0123725223904021
8.35,0.00849455440952673,-0.00242749740551784,0.00256821917304972
8.52,-0.00179657545054845,-0.00144916272363771,0.0168014042866277
8.69,-0.000126575476320667,0.00622322268884945,-0.00538106267910865
8.84,-0.00298012006767867,0.000188544279187575,0.0178750173316741
9,-0.00231922526304218,0.00248238196232453,-0.0135509181456255
9.16,-0.00191360340775559,0.00161764291210009,0.00752756080798489
9.32,0.00446212145469782,0.00117195501849388,-0.00246645893599085
9.48,0.00302380821795933,0.000333953221246297,-0.00196906885006465
9.64,-0.00528529402973033,-0.000459055106588613,0.00642253480237964
9.8,-0.00155497804721016,-0.00227656008408417,0.00959726517454218
9.96,0.000853700797819434,-0.00100981990181404,0.00666395023317856
10.12,0.00100726333978296,0.00523592951948226,0.00709611062361415
10.28,-0.00324292277735383,-0.00388226530902802,-0.000403091792781085
10.44,0.00223179940915186,0.000948017960314296,0.0054322343918588
10.6,-0.000583087721096165,-0.000857814598001161,0.00293211783441005
10.76,0.00778601803722401,-0.000695267679880152,-0.00147454690401538
10.92,0.00268533258987358,0.00600378372116139,0.00486125603137111
11.08,-0.00652723533947763,0.00493264765277412,-0.00994285281145868
11.25,0.000567276690487839,0.00136095020612426,-0.0110200988336828
11.41,-0.0110500410033494,-0.00680643875689313,-0.00138301226850879
11.57,-0.00649097051248981,-0.00233150463637166,-0.000148892652815702
11.73,0.00300450294460164,-0.00192000474339982,-0.00894919257993898
11.89,0.0034467297562365,-0.00205526157060643,-0.0132421697167593
12.05,0.00170869218131131,0.00220167849956354,0.00280736740756482
12.21,0.00590436377197989,0.00120380602239245,0.00360714138339202
12.37,-0.00161689331941872,-0.00158601524216384,-0.0116542582183206
12.53,0.000554633261156345,-0.00160469865155122,-0.0133208113806278
12.69,0.0024509482746975,0.00238630124168826,-0.0138754276860069
12.85,0.000190108415496271,-0.00371439104350935,-0.00131786451987148
13.01,-0.00152101202555532,-0.0028558462910846,-0.0145042332095406
13.17,-0.00044885390968763,0.00552115620173177,-0.0199816428531352
13.33,0.0100663742845584,-0.00554366895617386,-0.00348907372246066
13.5,0.00333371297976359,-0.00851424309729243,-0.00341305435790829
13.65,0.00271764487912041,0.00151187496305927,-0.00892283300868746
13.81,-0.0103700520401306,-0.0071554805274272,-0.00296352123450272
13.98,0.0014397671431472,-0.00378514173500966,0.00628002922391413
14.14,0.000660683250038541,0.000899971317746884,0.00130178518140789
14.3,-0.00801357718763751,-0.00125130956450881,-0.00067605676222815
14.46,0.00789207975470474,-0.0044662632029957,0.000205472857905509
14.62,-0.00319373303466719,-0.00148704468685446,-0.00223662532717195
14.78,0.000636064921498036,-0.00150584117672903,-0.00361073748448582
14.94,-0.00220315905092328,0.00151222676901952,0.0095591325719856
15.1,0.00727494435158571,0.000382276282782423,0.000254941441881207
15.26,-0.00381205302624865,-0.00477837791220503,0.00266073717079984
15.42,0.00687699299980815,0.00189946461523471,0.00930856640919775
15.58,-0.00943490741354869,-0.00445117324020172,-0.000657208985892943
15.75,0.000470891066883139,-0.00733779140181334,-0.00279670475612659
15.9,0.0192446595200916,0.0212376728461731,0.0200432764475325
16.06,0.0818769947920845,0.063417674607901,0.0631591218047153
16.23,0.15359446676923,0.133455079523806,0.136734530709937
16.38,0.233750020393284,0.194835771079522,0.19775243108026
16.54,0.311104948863034,0.276416457259234,0.281019093420907
16.71,0.379780655697883,0.342581408325995,0.3378784641256
16.87,0.423443143804642,0.378654787359196,0.388627167217452
17.03,0.455018947428682,0.420525702455873,0.41349719051051
17.19,0.486731870099395,0.439750691990113,0.435954643801417
17.35,0.489954349489501,0.473273703972682,0.459818387047496
17.51,0.520633630762272,0.486665826073442,0.478333704997597
17.67,0.535027694183588,0.492882337906544,0.490693748930862
17.83,0.541420683543236,0.502539838707575,0.503477621991111
18,0.543094272468647,0.522057505671722,0.512837345772359
18.15,0.561067470236042,0.530498913784256,0.510588642161853
18.31,0.563841506657235,0.543669347872082,0.539282551485926
18.48,0.56912769162064,0.543817357665346,0.527024121651164
18.63,0.584949723654695,0.549113519977512,0.547233800062571
18.79,0.585007557374578,0.556439502164166,0.552911023450938
18.96,0.591101514383359,0.569210209294189,0.549534758450077
19.11,0.592032542271819,0.566501102368506,0.557041336083299
19.27,0.600510876469252,0.571234500789303,0.553065329376326
19.44,0.602942883496972,0.574821011779778,0.56866372175579
19.6,0.613885161696216,0.583119837962434,0.566719204865964
19.76,0.610930903628356,0.58924035702639,0.584165826582237
19.92,0.60965537161211,0.59221339380923,0.563863630173079
20.08,0.61223244967638,0.59193808051636,0.587250825149673
20.25,0.614017202259679,0.599905555742481,0.584900452809427
20.4,0.622795952782619,0.597945368319119,0.590516489213748
20.56,0.624509876358745,0.606809496421856,0.600472786089436
20.73,0.62306430311945,0.604878408377203,0.604153401704685
20.88,0.635654496341686,0.608949431561895,0.592036494086144
21.04,0.627581174112411,0.615209014496127,0.592312518404794
21.21,0.638505190883575,0.608945687341318,0.595414398024078
21.36,0.638534054964823,0.619953042482722,0.604679063455114
21.52,0.64120164262478,0.621522323226284,0.600994022709769
21.69,0.642487284693051,0.618615124416,0.599161718378183
21.84,0.642056575365279,0.620819088240798,0.608781049791737
22.01,0.646947142968034,0.626616171982325,0.623384580052494
22.17,0.656231020777103,0.628733792572887,0.6075019413534
22.33,0.652995581285502,0.629165156938113,0.607913205296159
22.5,0.650021677814924,0.635256777655336,0.611542057815531
22.65,0.655055299135264,0.634197062716158,0.6119084148825
22.81,0.659306435268891,0.628370753950935,0.621267920138806
22.98,0.651585381499699,0.643893312430807,0.634484554533083
23.13,0.664080619987364,0.640742111058112,0.612925839701573
23.29,0.662000893148327,0.645355769807448,0.640415977061415
23.46,0.661915966365591,0.646158917685636,0.629000753034905
23.61,0.662890331426017,0.641961721806211,0.637556250394613
23.77,0.660988468785321,0.646301424228523,0.635466605627005
23.94,0.662833975509563,0.645641159828179,0.636669585438318
24.09,0.662917647332245,0.642009014578864,0.629879769618194
24.25,0.664767446723589,0.649127984086926,0.64608678127958
24.41,0.673243083343335,0.652250814821829,0.639620737478155
24.58,0.670134078145049,0.652439634106479,0.637164380540546
24.75,0.663225710704063,0.652011812929852,0.64914651290048
24.9,0.670562664596469,0.65719094950225,0.63653379950185
25.06,0.674770627758509,0.658132382251803,0.647232835343237
25.23,0.674257900340463,0.658814860685635,0.653438452043821
25.38,0.675768754959776,0.670164196349371,0.63624632993931
25.54,0.677321023260879,0.662912822155281,0.633632635042728
25.71,0.680551876870412,0.66074283273464,0.645832008511639
25.86,0.681180858158155,0.663693454452015,0.648632651496973
26.02,0.678950536112609,0.660458648905773,0.652078680585892
26.19,0.679494625803412,0.66980593223688,0.645137454295875
26.34,0.683393387919567,0.66562637691346,0.654365680692663
26.5,0.690724278126477,0.662356365642199,0.657645303037474
26.66,0.679363347598861,0.661511327725747,0.647409758600228
26.82,0.685646533818062,0.670280342574239,0.64564361269514
26.98,0.676425497840495,0.67347270524428,0.64508708429651
27.14,0.675681189242347,0.670877080869766,0.653262484833456
27.31,0.689610893986398,0.67576235894939,0.656609303598245
27.48,0.674845104359859,0.673971113773925,0.665443857310186
27.63,0.689691692302413,0.673138464453072,0.6584867879618
27.79,0.687122249555857,0.675402260420106,0.664780442898802
27.96,0.690077070596451,0.672299155947973,0.650773021366979
28.11,0.689985165297526,0.678009921584259,0.662046504652324
28.27,0.689746300657671,0.675354842002468,0.652143637125205
28.44,0.687837541600975,0.677303143410174,0.661954860754346
28.59,0.689623713344709,0.678020953214012,0.662551133376988
28.75,0.693796267867463,0.676653031124682,0.661839069850164
28.91,0.685093952621845,0.679436670655937,0.656077004152671
29.07,0.694016425392491,0.680960417656648,0.67089772089117
29.23,0.687546519882977,0.67618440045667,0.666743725618109
29.39,0.692128402498187,0.682656825996836,0.661768458977952
29.55,0.682200085108371,0.67939410213475,0.679904199102031
29.73,0.69340240979661,0.683527219071421,0.659890892667543
29.88,0.692779046507614,0.679755934564838,0.672228455847295
30.04,0.702986305158831,0.682602522233976,0.666684833145966
